# Peakfit fitted function data
# Source: E:/VS_CODE/PCM_Fano/10nm_5L_norm.txt
# Parameters:
# iC=171400.0
# iD=100000.0
# ib=-0.08120321269540899
# ig0=4.359177827562733
# iq=-38.502211192429684
# ia=0.5431
# iL=12.0986
# N=4.299432080128154e-09
# y0=0.005073953459880232
#
# iw	y_model	y	residual
399.8611	0.007316553466658445	0.00773	0.00041344653334155455
400.7176	0.007332396210569322	0.00951	0.0021776037894306773
401.5739	0.0073488128545477595	0.00951	0.00216118714545224
402.43	0.0073658802323809044	0.00921	0.001844119767619095
403.286	0.007383698457160245	0.00802	0.0006363015428397546
404.1418	0.007402393009695465	0.00713	-0.00027239300969546503
404.9976	0.007422137892051134	0.00951	0.0020878621079488653
405.8531	0.007443156620538478	0.00921	0.0017668433794615218
406.7085	0.007465775604442568	0.00862	0.0011542243955574311
407.5637	0.007490454572608751	0.00802	0.0005295454273912484
408.4188	0.007517882747213735	0.00654	-0.0009778827472137356
409.2737	0.007549111409345412	0.011	0.003450888590654588
410.1285	0.007585822077144052	0.0101	0.0025141779228559473
410.9831	0.007630755572992109	0.0101	0.0024692444270078906
411.8376	0.007688406253084068	0.00921	0.0015215937469159318
412.6919	0.007765416931597858	0.00921	0.0014445830684021417
413.5461	0.007867861278838768	0.00981	0.001942138721161231
414.4001	0.007990196766701662	0.0104	0.0024098032332983375
415.254	0.008106967753607072	0.00862	0.000513032246392927
416.1077	0.008188847178408488	0.00921	0.001021152821591511
416.9612	0.008221269788572735	0.00981	0.0015887302114272646
417.8146	0.008208247498249836	0.0107	0.002491752501750164
418.6679	0.008169832184363294	0.00951	0.0013401678156367055
419.521	0.008135063262599643	0.0107	0.0025649367374003564
420.3739	0.008131296091767246	0.0107	0.002568703908232753
421.2267	0.008173676507727204	0.01159	0.003416323492272796
422.0794	0.008258968494261942	0.00921	0.0009510315057380571
422.9319	0.00836642316697738	0.01189	0.00352357683302262
423.7842	0.008465746071203432	0.00981	0.0013442539287965675
424.6364	0.008529175143942844	0.00951	0.0009808248560571557
425.4884	0.008542920412882155	0.0104	0.001857079587117845
426.3403	0.008513345773085108	0.01159	0.0030766542269148912
427.192	0.008465043974923037	0.0104	0.001934956025076963
428.0436	0.008431285286434336	0.011	0.002568714713565663
428.8951	0.008440500407491284	0.011	0.0025594995925087155
429.7463	0.00850420518079694	0.0104	0.0018957948192030588
430.5974	0.008611612438736475	0.01218	0.0035683875612635245
431.4484	0.008733411451497546	0.01189	0.0031565885485024536
432.2992	0.008833576405926283	0.01159	0.0027564235940737165
433.1499	0.00888459771869167	0.01129	0.00240540228130833
434.0004	0.008879617524709215	0.01129	0.002410382475290785
434.8508	0.008836203317632026	0.01189	0.003053796682367974
435.701	0.008789626431026936	0.0101	0.0013103735689730632
436.5511	0.008778080758007132	0.01278	0.004001919241992868
437.4009	0.008825965963974136	0.01129	0.002464034036025863
438.2507	0.008932564677313992	0.011	0.0020674353226860075
439.1003	0.009071341301040405	0.01159	0.002518658698959595
439.9498	0.009200918020474007	0.01248	0.003279081979525993
440.7991	0.00928318075264698	0.0107	0.0014168192473530197
441.6482	0.009300858527164425	0.01159	0.0022891414728355743
442.4972	0.009266304982459537	0.01397	0.004703695017540463
443.3461	0.00921705242716624	0.01129	0.00207294757283376
444.1948	0.009199443309366907	0.01218	0.002980556690633093
445.0433	0.00924726535437477	0.01159	0.0023427346456252295
445.8917	0.009365290089379214	0.01337	0.004004709910620786
446.74	0.009525745366121616	0.011	0.0014742546338783833
447.588	0.009680180105446176	0.01248	0.0027998198945538236
448.436	0.009782125331357527	0.01159	0.0018078746686424722
449.2838	0.009809725362549555	0.01159	0.001780274637450445
450.1314	0.0097777757226469	0.01218	0.0024022242773531002
450.9789	0.009732081767468311	0.01397	0.004237918232531689
451.8262	0.009728085092893966	0.01634	0.006611914907106034
452.6734	0.009803403104368573	0.01218	0.0023765968956314266
453.5204	0.009957864652512135	0.01159	0.0016321353474878647
454.3673	0.010151820137273952	0.01248	0.0023281798627260483
455.2141	0.010324728018651499	0.01278	0.002455271981348501
456.0606	0.010425800686012319	0.01189	0.0014641993139876807
456.9071	0.010441449704181035	0.01278	0.002338550295818965
457.7534	0.010404414652797105	0.01426	0.003855585347202895
458.5995	0.010378712063645702	0.01218	0.0018012879363542983
459.4455	0.010426548342312936	0.01337	0.0029434516576870642
460.2913	0.01057415367104843	0.01367	0.00309584632895157
461.137	0.010795381746866247	0.01367	0.0028746182531337525
461.9825	0.011023509376317093	0.01516	0.004136490623682907
462.8279	0.011186945694320514	0.01456	0.0033730543056794855
463.6731	0.011249992640021352	0.01456	0.003310007359978648
464.5182	0.011235763140629462	0.01605	0.004814236859370536
465.3631	0.011216163959470744	0.01486	0.0036438360405292563
466.2079	0.011272314915840149	0.01426	0.0029876850841598513
467.0525	0.011446597123466688	0.01753	0.006083402876533313
467.8969	0.011714738499258392	0.01575	0.004035261500741608
468.7413	0.011996879259018428	0.01634	0.004343120740981572
469.5854	0.01220374796047901	0.01575	0.0035462520395209904
470.4294	0.01229278130535633	0.01694	0.0046472186946436705
471.2733	0.01229830563908808	0.01634	0.00404169436091192
472.117	0.012314694746883546	0.01694	0.004625305253116455
472.9606	0.012438745478103308	0.01605	0.0036112545218966903
473.804	0.01270578108716473	0.01724	0.004534218912835269
474.6473	0.013062041380999813	0.01605	0.002987958619000185
475.4904	0.013395544331378934	0.01694	0.0035444556686210667
476.3334	0.013610211250258127	0.01724	0.003629788749741871
477.1762	0.013694988741664176	0.01724	0.003545011258335822
478.0189	0.013738472959078252	0.01724	0.003501527040921746
478.8614	0.013872354137083296	0.01813	0.004257645862916704
479.7037	0.014178030484230641	0.01932	0.005141969515769359
480.546	0.014622528270899503	0.01902	0.004397471729100495
481.388	0.015075297908346278	0.01961	0.004534702091653721
482.2299	0.015403139530124841	0.01902	0.0036168604698751574
483.0717	0.015575781972912277	0.01872	0.0031442180270877234
483.9133	0.015699700367888748	0.02318	0.0074802996321112515
484.7548	0.01594335594867114	0.02229	0.00634664405132886
485.5961	0.01640305998211085	0.0214	0.00499694001788915
486.4373	0.017016584662302506	0.02288	0.005863415337697495
487.2783	0.017605063094556776	0.02288	0.005274936905443225
488.1192	0.01802328481183309	0.02318	0.005156715188166908
488.9599	0.01829597304768392	0.02318	0.00488402695231608
489.8004	0.018613035367168095	0.02556	0.006946964632831905
490.6409	0.01916860771527844	0.02526	0.00609139228472156
491.4811	0.019977259547934664	0.02793	0.007952740452065336
492.3213	0.020847144879833558	0.02764	0.006792855120166443
493.1612	0.02155791911594134	0.02734	0.005782080884058658
494.001	0.022092500691436284	0.02942	0.0073274993085637175
494.8407	0.022681418283038546	0.0321	0.00941858171696145
495.6802	0.02358441603498968	0.0315	0.007915583965010319
496.5196	0.024811870167573156	0.0312	0.006388129832426842
497.3588	0.026097218846572796	0.03447	0.008372781153427204
498.1979	0.027196462637272004	0.03388	0.006683537362727997
499.0368	0.028203353701947098	0.03269	0.004486646298052899
499.8756	0.0294882118037035	0.03655	0.007061788196296499
500.7142	0.03127179304026845	0.03536	0.004088206959731555
501.5527	0.033342555583276125	0.03626	0.002917444416723876
502.391	0.03533592918653119	0.03655	0.0012140708134688108
503.2292	0.03728509865305501	0.04487	0.007584901346944992
504.0672	0.039674672838803056	0.03744	-0.002234672838803055
504.9051	0.042821076396632435	0.0425	-0.00032107639663243176
505.7428	0.046441497851082036	0.04666	0.00021850214891796366
506.5804	0.05018219975863953	0.04666	-0.00352219975863953
507.4178	0.054389784556633985	0.05171	-0.0026797845566339865
508.2551	0.05978674137439666	0.05765	-0.002136741374396657
509.0923	0.06645027839886632	0.06092	-0.0055302783988663146
509.9292	0.07401729886530997	0.06776	-0.006257298865309971
510.7661	0.08300057440943256	0.074	-0.009000574409432568
511.6028	0.09460915264290419	0.08351	-0.01109915264290419
512.4393	0.10931278100616662	0.09718	-0.012132781006166618
513.2757	0.12760454133521665	0.11174	-0.015864541335216642
514.1119	0.15172657417877083	0.13224	-0.019486574178770838
514.948	0.18443143671575155	0.16731	-0.01712143671575156
515.7839	0.2289899893341154	0.211	-0.017989989334115414
516.6198	0.29228811008221844	0.27459	-0.017698110082218443
517.4554	0.3843427761157505	0.37593	-0.008412776115750531
518.2909	0.5191036357891599	0.52422	0.005116364210840163
519.1262	0.7082905638382304	0.73432	0.02602943616176956
519.9614	0.9233404948092573	0.94235	0.019009505190742737
520.7965	1.0286021771169027	1.0	-0.028602177116902716
521.6314	0.8941882437157306	0.88856	-0.005628243715730563
522.4661	0.6433764084295829	0.6636	0.020223591570417088
523.3007	0.43491192731446754	0.44844	0.013528072685532466
524.1352	0.2972901756574836	0.29926	0.001969824342516413
524.9695	0.21036163095220117	0.20446	-0.00590163095220117
525.8036	0.15448721669991688	0.15067	-0.0038172166999168866
526.6377	0.11732622711490545	0.10906	-0.008266227114905447
527.4716	0.09172527275496051	0.09034	-0.0013852727549605037
528.3052	0.0735064469692897	0.06865	-0.0048564469692896906
529.1388	0.06016031487577114	0.05944	-0.0007203148757711428
529.9722	0.05014102473101547	0.04785	-0.002291024731015473
530.8055	0.042455419960011544	0.04428	0.0018245800399884562
531.6386	0.03645005466561661	0.03863	0.0021799453343833847
532.4716	0.03168036816813526	0.03447	0.0027896318318647376
533.3044	0.027838379014603162	0.02883	0.0009916209853968391
534.1371	0.024704273226211375	0.02526	0.0005557267737886264
534.9696	0.022119385054463724	0.02437	0.0022506149455362758
535.802	0.019965997338851425	0.0214	0.0014340026611485736
536.6342	0.018156310119039044	0.01902	0.0008636898809609543
537.4663	0.016623084203776915	0.01991	0.0032869157962230854
538.2982	0.015314826991569578	0.01575	0.0004351730084304218
539.13	0.014191050284345013	0.01248	-0.0017110502843450132
539.9617	0.013219964107387717	0.01278	-0.0004399641073877178
540.7932	0.01237632724867385	0.01367	0.0012936727513261498
541.6245	0.011639726052497468	0.01248	0.000840273947502532
542.4557	0.010993532992158248	0.011	6.467007841751138e-06
543.2867	0.010424307165192699	0.00951	-0.0009143071651926994
544.1177	0.009920790858402442	0.00862	-0.0013007908584024425
544.9484	0.009473937454121206	0.0101	0.0006260625458787937
545.779	0.009075930745466218	0.0104	0.0013240692545337818
546.6095	0.00872031918508375	0.00594	-0.0027803191850837494
547.4398	0.008401695102472356	0.00684	-0.0015616951024723562
548.27	0.00811539740504997	0.00594	-0.002175397405049969
549.1	0.007857521569533444	0.00684	-0.0010175215695334442
549.9298	0.007624690954867815	0.00594	-0.001684690954867815
550.7595	0.00741397881547004	0.00267	-0.00474397881547004
551.5891	0.007222886635533455	0.00713	-9.288663553345521e-05
552.4185	0.0070492690923630525	0.00475	-0.0022992690923630526
553.2478	0.006891219405935178	0.00594	-0.0009512194059351784
554.077	0.006747094519461737	0.00475	-0.001997094519461737
554.9059	0.00661548614203632	0.00654	-7.548614203631981e-05
555.7348	0.006495081335949385	0.00386	-0.002635081335949385
556.5635	0.0063847967628552745	0.00327	-0.0031147967628552746
557.392	0.006283646394383347	0.00416	-0.002123646394383347
558.2204	0.006190746376033971	0.00446	-0.0017307463760339705
559.0486	0.006105334079734671	0.00416	-0.001945334079734671
559.8768	0.006026701282590318	0.00267	-0.003356701282590318
560.7047	0.0059542619765911775	0.00208	-0.0038742619765911777
561.5325	0.005887448120285176	0.00475	-0.001137448120285176
562.3602	0.005825768394920946	0.00386	-0.001965768394920946
563.1877	0.005768788228746673	0.00297	-0.002798788228746673
564.015	0.005716109179788565	0.00119	-0.004526109179788565
564.8422	0.005667366512608339	0.00238	-0.0032873665126083385
565.6693	0.005622237308792147	0.00297	-0.002652237308792147
566.4962	0.005580434306493449	0.00297	-0.002610434306493449
567.323	0.005541687217016094	0.00267	-0.0028716872170160943
568.1497	0.00550575586275115	0.00208	-0.0034257558627511504
568.9761	0.0054724296812564644	0.00238	-0.0030924296812564643
569.8025	0.005441497417971233	0.000297177	-0.005144320417971233
570.6287	0.005412785449345801	0.00267	-0.0027427854493458008
571.4547	0.005386127666411524	0.00089153	-0.004494597666411524
572.2806	0.005361369365422307	0.00208	-0.0032813693654223076
573.1063	0.005338374912655133	0.00089153	-0.004446844912655133
573.9319	0.005317014467718811	0.00089153	-0.004425484467718811
574.7574	0.005297171732594684	0.00089153	-0.004405641732594685
575.5827	0.005278742010136328	0.00119	-0.004088742010136328
576.4078	0.00526162656219669	0.0	-0.00526162656219669
577.2329	0.00524573078529114	0.000297177	-0.00494855378529114
578.0577	0.005230976888787067	0.00089153	-0.004339446888787068
578.8824	0.005217283985173983	0.00178	-0.003437283985173983
579.707	0.005204581053607717	0.00149	-0.003714581053607717
580.5315	0.0051928024312966475	0.00238	-0.0028128024312966474
581.3558	0.005181888626567018	0.00208	-0.003101888626567018
582.1799	0.0051717830710292755	0.00119	-0.003981783071029275
583.0039	0.005162432246323	0.00119	-0.003972432246323
583.8278	0.005153787769713443	0.00149	-0.003663787769713443
584.6514	0.005145806572020093	0.0	-0.005145806572020093
585.475	0.005138443884814283	0.00089153	-0.004246913884814283
586.2984	0.0051316626792932635	0.00297	-0.0021616626792932635
587.1216	0.00512542662229701	0.00149	-0.0036354266222970097
587.9448	0.005119700547536692	0.00149	-0.003629700547536692
588.7677	0.005114455091344078	0.000594354	-0.004520101091344078
589.5905	0.0051096595573667395	0.00238	-0.0027296595573667393
590.4132	0.005105286646344544	0.00178	-0.0033252866463445445
591.2357	0.005101311318401823	0.00386	-0.0012413113184018229
592.0581	0.005097709190825313	0.00119	-0.003907709190825313
592.8804	0.005094457979684577	0.00267	-0.0024244579796845766
593.7025	0.0050915371668663	0.00327	-0.0018215371668662997
594.5244	0.005088927115054718	0.00267	-0.0024189271150547183
595.3462	0.005086609166629449	0.00357	-0.0015166091666294489
596.1678	0.00508456641502369	0.00297	-0.0021145664150236903
596.9894	0.005082782288783835	0.00238	-0.0027027822887838344
597.8107	0.005081242313095693	0.00267	-0.002411242313095693
598.632	0.005079931721935698	0.00208	-0.0029999317219356982
599.453	0.0050788376568155205	0.000297177	-0.0047816606568155205
600.2739	0.005077947278632025	0.00089153	-0.004186417278632025
601.0947	0.005077248840631751	0.00208	-0.0029972488406317514
601.9153	0.005076731344826516	0.00297	-0.0021067313448265164
602.7358	0.00507638429839002	0.00178	-0.00329638429839002
603.5562	0.005076197912707067	0.00327	-0.0018061979127070673
604.3763	0.005076162958251935	0.00267	-0.0024061629582519347
605.1964	0.0050762707096679805	0.00505	-2.6270709667980743e-05
606.0163	0.005076512955086571	0.00208	-0.002996512955086571
606.8361	0.0050768819803827065	0.00446	-0.0006168819803827061
607.6557	0.005077370436990162	0.00357	-0.0015073704369901624
608.4752	0.005077971492458502	0.00357	-0.0015079714924585018
609.2945	0.005078678568490522	0.00327	-0.0018086785684905218
610.1136	0.005079485504329538	0.00297	-0.002109485504329538
610.9327	0.005080386713069794	0.00357	-0.0015103867130697945
611.7516	0.005081376509600965	0.00327	-0.0018113765096009651
612.5703	0.005082449696654025	0.00238	-0.0027024496966540244
613.3889	0.00508360150692957	0.00416	-0.00092360150692957
614.2073	0.005084827167762347	0.00386	-0.0012248271677623465
615.0257	0.005086122609344115	0.00357	-0.0015161226093441155
615.8438	0.005087483210518276	0.00386	-0.0012274832105182757
616.6619	0.0050889055450384834	0.00475	-0.00033890554503848355
617.4797	0.005090385376340868	0.00386	-0.0012303853763408683
618.2974	0.005091919537866722	0.00446	-0.0006319195378667215
619.115	0.005093504707464986	0.000594354	-0.004499150707464986
619.9324	0.005095137534722932	0.00297	-0.002125137534722932
620.7498	0.005096815436154943	0.00386	-0.001236815436154943
621.5669	0.005098534961103765	0.00416	-0.0009385349611037656
622.3839	0.0051002938354922514	0.00297	-0.0021302938354922515
623.2007	0.005102089296665742	0.00297	-0.002132089296665742
624.0175	0.005103919374798347	0.00238	-0.002723919374798347
624.834	0.005105781106619584	0.00297	-0.002135781106619584
625.6505	0.005107673002429918	0.00238	-0.002727673002429918
626.4667	0.005109592305423211	0.00297	-0.0021395923054232107
627.2828	0.0051115375245524295	0.00416	-0.0009515375245524298
628.0988	0.005113506808156477	0.00267	-0.002443506808156477
628.9147	0.005115498398520138	0.00119	-0.003925498398520138
629.7303	0.005117510131186725	0.00327	-0.0018475101311867252
630.5459	0.005119541158579297	0.00297	-0.0021495411585792973
631.3613	0.005121589479152314	0.00267	-0.0024515894791523143
632.1766	0.005123653913163967	0.00149	-0.003633653913163967
632.9917	0.005125732848904592	0.00416	-0.000965732848904592
633.8067	0.005127825251426854	0.00327	-0.0018578252514268542
634.6215	0.0051299296391821144	0.00416	-0.0009699296391821148
635.4362	0.005132045107293051	0.00178	-0.0033520451072930513
636.2507	0.005134170291663675	0.00386	-0.0012741702916636752
637.0651	0.005136304404345829	0.000594354	-0.004541950404345829
637.8794	0.005138446450876263	0.00238	-0.002758446450876263
638.6935	0.00514059522229236	0.00089153	-0.0042490652222923605
639.5074	0.00514274981917505	0.00178	-0.0033627498191750502
640.3213	0.0051449099191543035	0.000594354	-0.004550555919154303
